     Angle,       PSD
20,1391
20.0197,1432
20.0393,1434
20.059,1383
20.0787,1489
20.0984,1398
20.118,1431
20.1377,1382
20.1574,1406
20.1771,1433
20.1967,1381
20.2164,1393
20.2361,1355
20.2558,1400
20.2754,1439
20.2951,1367
20.3148,1362
20.3345,1314
20.3541,1348
20.3738,1328
20.3935,1365
20.4131,1373
20.4328,1295
20.4525,1408
20.4722,1304
20.4918,1367
20.5115,1386
20.5312,1308
20.5509,1320
20.5705,1336
20.5902,1259
20.6099,1363
20.6296,1355
20.6492,1311
20.6689,1277
20.6886,1334
20.7082,1331
20.7279,1275
20.7476,1310
20.7673,1354
20.7869,1338
20.8066,1336
20.8263,1309
20.846,1305
20.8656,1238
20.8853,1286
20.905,1292
20.9247,1268
20.9443,1257
20.964,1295
20.9837,1275
21.0034,1206
21.023,1224
21.0427,1275
21.0624,1219
21.082,1253
21.1017,1307
21.1214,1277
21.1411,1260
21.1607,1240
21.1804,1270
21.2001,1244
21.2198,1304
21.2394,1238
21.2591,1233
21.2788,1246
21.2985,1213
21.3181,1263
21.3378,1208
21.3575,1213
21.3772,1170
21.3968,1164
21.4165,1191
21.4362,1194
21.4558,1162
21.4755,1259
21.4952,1143
21.5149,1245
21.5345,1205
21.5542,1180
21.5739,1201
21.5936,1200
21.6132,1219
21.6329,1174
21.6526,1206
21.6723,1205
21.6919,1169
21.7116,1218
21.7313,1168
21.7509,1194
21.7706,1133
21.7903,1160
21.81,1138
21.8296,1134
21.8493,1164
21.869,1177
21.8887,1224
21.9083,1220
21.928,1111
21.9477,1235
21.9674,1081
21.987,1113
22.0067,1143
22.0264,1211
22.0461,1159
22.0657,1130
22.0854,1167
22.1051,1162
22.1247,1139
22.1444,1122
22.1641,1170
22.1838,1076
22.2034,1137
22.2231,1136
22.2428,1088
22.2625,1161
22.2821,1039
22.3018,1061
22.3215,1089
22.3412,1070
22.3608,1145
22.3805,1135
22.4002,1133
22.4199,1058
22.4395,1076
22.4592,1110
22.4789,1136
22.4985,1101
22.5182,1068
22.5379,1148
22.5576,1114
22.5772,1081
22.5969,1082
22.6166,1077
22.6363,1031
22.6559,1108
22.6756,1025
22.6953,1070
22.715,1109
22.7346,1046
22.7543,1139
22.774,1082
22.7936,1110
22.8133,1068
22.833,1049
22.8527,1056
22.8723,1067
22.892,1025
22.9117,1122
22.9314,1136
22.951,1090
22.9707,1033
22.9904,1049
23.0101,1035
23.0297,1078
23.0494,1103
23.0691,965
23.0888,1041
23.1084,1033
23.1281,1072
23.1478,982
23.1674,1060
23.1871,1074
23.2068,1078
23.2265,1071
23.2461,1063
23.2658,1052
23.2855,1003
23.3052,1058
23.3248,1046
23.3445,1033
23.3642,1066
23.3839,1037
23.4035,1070
23.4232,1018
23.4429,1040
23.4626,986
23.4822,995
23.5019,1053
23.5216,976
23.5412,1038
23.5609,1010
23.5806,997
23.6003,991
23.6199,1004
23.6396,1040
23.6593,1077
23.679,1016
23.6986,1050
23.7183,1031
23.738,991
23.7577,997
23.7773,1050
23.797,991
23.8167,998
23.8363,1014
23.856,1019
23.8757,1035
23.8954,1035
23.915,1019
23.9347,1027
23.9544,958
23.9741,1004
23.9937,1035
24.0134,1017
24.0331,1005
24.0528,991
24.0724,986
24.0921,1005
24.1118,983
24.1315,1002
24.1511,1006
24.1708,985
24.1905,988
24.2101,997
24.2298,1030
24.2495,993
24.2692,987
24.2888,946
24.3085,1035
24.3282,1043
24.3479,987
24.3675,1007
24.3872,1014
24.4069,1011
24.4266,998
24.4462,1058
24.4659,996
24.4856,1013
24.5053,1035
24.5249,961
24.5446,1018
24.5643,1037
24.5839,995
24.6036,944
24.6233,989
24.643,956
24.6626,987
24.6823,959
24.702,915
24.7217,912
24.7413,1001
24.761,950
24.7807,1018
24.8004,975
24.82,939
24.8397,1031
24.8594,967
24.8791,929
24.8987,1012
24.9184,1023
24.9381,945
24.9577,993
24.9774,986
24.9971,956
25.0168,971
25.0364,986
25.0561,997
25.0758,972
25.0955,972
25.1151,945
25.1348,961
25.1545,982
25.1742,972
25.1938,999
25.2135,959
25.2332,993
25.2528,956
25.2725,945
25.2922,972
25.3119,1016
25.3315,991
25.3512,994
25.3709,1000
25.3906,969
25.4102,940
25.4299,920
25.4496,1034
25.4693,963
25.4889,980
25.5086,978
25.5283,973
25.548,1015
25.5676,1002
25.5873,927
25.607,947
25.6266,971
25.6463,997
25.666,1004
25.6857,937
25.7053,985
25.725,949
25.7447,956
25.7644,969
25.784,969
25.8037,925
25.8234,971
25.8431,907
25.8627,919
25.8824,911
25.9021,889
25.9218,929
25.9414,1012
25.9611,923
25.9808,969
26.0004,921
26.0201,1019
26.0398,991
26.0595,946
26.0791,910
26.0988,979
26.1185,927
26.1382,931
26.1578,884
26.1775,967
26.1972,947
26.2169,918
26.2365,943
26.2562,914
26.2759,999
26.2955,983
26.3152,960
26.3349,943
26.3546,935
26.3742,945
26.3939,922
26.4136,940
26.4333,902
26.4529,928
26.4726,931
26.4923,927
26.512,950
26.5316,935
26.5513,969
26.571,936
26.5907,947
26.6103,979
26.63,945
26.6497,926
26.6693,951
26.689,973
26.7087,937
26.7284,962
26.748,939
26.7677,959
26.7874,977
26.8071,951
26.8267,927
26.8464,915
26.8661,902
26.8858,962
26.9054,1004
26.9251,944
26.9448,919
26.9645,953
26.9841,935
27.0038,946
27.0235,980
27.0431,937
27.0628,921
27.0825,911
27.1022,998
27.1218,945
27.1415,892
27.1612,917
27.1809,968
27.2005,952
27.2202,916
27.2399,972
27.2596,961
27.2792,952
27.2989,914
27.3186,996
27.3382,992
27.3579,963
27.3776,868
27.3973,958
27.4169,915
27.4366,969
27.4563,950
27.476,1003
27.4956,968
27.5153,909
27.535,983
27.5547,965
27.5743,974
27.594,984
27.6137,906
27.6334,930
27.653,991
27.6727,1002
27.6924,891
27.712,991
27.7317,977
27.7514,962
27.7711,953
27.7907,919
27.8104,976
27.8301,931
27.8498,974
27.8694,937
27.8891,880
27.9088,909
27.9285,1008
27.9481,934
27.9678,933
27.9875,1000
28.0072,946
28.0268,964
28.0465,923
28.0662,947
28.0858,978
28.1055,939
28.1252,935
28.1449,934
28.1645,899
28.1842,927
28.2039,919
28.2236,890
28.2432,964
28.2629,924
28.2826,983
28.3023,949
28.3219,921
28.3416,967
28.3613,899
28.3809,939
28.4006,964
28.4203,978
28.44,966
28.4596,958
28.4793,952
28.499,1001
28.5187,987
28.5383,1019
28.558,938
28.5777,952
28.5974,977
28.617,991
28.6367,987
28.6564,972
28.6761,953
28.6957,1017
28.7154,949
28.7351,956
28.7547,923
28.7744,995
28.7941,990
28.8138,937
28.8334,951
28.8531,912
28.8728,901
28.8925,885
28.9121,995
28.9318,1035
28.9515,953
28.9712,999
28.9908,993
29.0105,1015
29.0302,990
29.0499,899
29.0695,981
29.0892,937
29.1089,950
29.1285,989
29.1482,920
29.1679,923
29.1876,964
29.2072,919
29.2269,953
29.2466,995
29.2663,984
29.2859,1007
29.3056,956
29.3253,987
29.345,957
29.3646,964
29.3843,1032
29.404,994
29.4236,988
29.4433,959
29.463,945
29.4827,937
29.5023,922
29.522,979
29.5417,1001
29.5614,932
29.581,981
29.6007,967
29.6204,984
29.6401,948
29.6597,1024
29.6794,1020
29.6991,995
29.7188,941
29.7384,1027
29.7581,1004
29.7778,991
29.7974,1000
29.8171,965
29.8368,988
29.8565,1015
29.8761,977
29.8958,956
29.9155,1001
29.9352,1028
29.9548,977
29.9745,957
29.9942,1014
30.0139,981
30.0335,966
30.0532,1018
30.0729,967
30.0926,1020
30.1122,1013
30.1319,995
30.1516,1046
30.1712,935
30.1909,1001
30.2106,985
30.2303,1076
30.2499,1018
30.2696,986
30.2893,1025
30.309,994
30.3286,975
30.3483,970
30.368,987
30.3877,999
30.4073,974
30.427,984
30.4467,1009
30.4663,958
30.486,995
30.5057,972
30.5254,1031
30.545,948
30.5647,1033
30.5844,989
30.6041,975
30.6237,985
30.6434,1010
30.6631,997
30.6828,976
30.7024,952
30.7221,970
30.7418,1027
30.7615,973
30.7811,991
30.8008,1047
30.8205,968
30.8401,986
30.8598,992
30.8795,1037
30.8992,1030
30.9188,956
30.9385,1033
30.9582,1037
30.9779,1037
30.9975,1016
31.0172,1034
31.0369,1060
31.0566,962
31.0762,1001
31.0959,1015
31.1156,1003
31.1353,1009
31.1549,1049
31.1746,937
31.1943,1022
31.2139,1016
31.2336,1060
31.2533,1014
31.273,969
31.2926,1065
31.3123,1009
31.332,962
31.3517,1026
31.3713,1008
31.391,980
31.4107,1000
31.4304,974
31.45,1017
31.4697,1028
31.4894,1083
31.509,1033
31.5287,1051
31.5484,990
31.5681,1012
31.5877,1018
31.6074,1000
31.6271,1033
31.6468,1009
31.6664,1026
31.6861,1006
31.7058,1000
31.7255,1037
31.7451,997
31.7648,996
31.7845,1063
31.8042,1025
31.8238,1001
31.8435,1059
31.8632,1031
31.8828,1033
31.9025,1030
31.9222,1044
31.9419,1016
31.9615,1000
31.9812,1073
32.0009,1065
32.0206,1072
32.0402,974
32.0599,973
32.0796,1024
32.0993,1041
32.1189,989
32.1386,990
32.1583,1041
32.178,997
32.1976,1082
32.2173,1087
32.237,1022
32.2566,1041
32.2763,1030
32.296,997
32.3157,1018
32.3353,997
32.355,1079
32.3747,1045
32.3944,1026
32.414,1117
32.4337,1032
32.4534,1107
32.4731,1008
32.4927,1026
32.5124,1021
32.5321,1068
32.5518,1021
32.5714,1062
32.5911,1064
32.6108,1040
32.6304,991
32.6501,1031
32.6698,1054
32.6895,1058
32.7091,1001
32.7288,1038
32.7485,1040
32.7682,1045
32.7878,1055
32.8075,1006
32.8272,1073
32.8469,1029
32.8665,1036
32.8862,1052
32.9059,1052
32.9255,1017
32.9452,1031
32.9649,1032
32.9846,1033
33.0042,1112
33.0239,1068
33.0436,1019
33.0633,1062
33.0829,1024
33.1026,1043
33.1223,1035
33.142,1090
33.1616,1019
33.1813,1026
33.201,1077
33.2207,1049
33.2403,1080
33.26,1043
33.2797,1105
33.2993,1107
33.319,1057
33.3387,1021
33.3584,1093
33.378,1067
33.3977,1042
33.4174,1083
33.4371,1076
33.4567,1068
33.4764,1123
33.4961,1073
33.5158,1081
33.5354,1076
33.5551,1095
33.5748,1052
33.5945,1120
33.6141,1029
33.6338,1075
33.6535,1119
33.6731,1045
33.6928,1071
33.7125,1096
33.7322,1130
33.7518,1086
33.7715,1075
33.7912,1138
33.8109,1118
33.8305,1133
33.8502,1074
33.8699,1102
33.8896,1077
33.9092,1101
33.9289,1103
33.9486,1091
33.9682,1058
33.9879,1110
34.0076,1105
34.0273,1081
34.0469,1184
34.0666,1091
34.0863,1208
34.106,1149
34.1256,1093
34.1453,1117
34.165,1127
34.1847,1103
34.2043,1090
34.224,1112
34.2437,1144
34.2634,1059
34.283,1064
34.3027,1136
34.3224,1130
34.342,1111
34.3617,1153
34.3814,1090
34.4011,1121
34.4207,1105
34.4404,1112
34.4601,1144
34.4798,1208
34.4994,1175
34.5191,1197
34.5388,1124
34.5585,1104
34.5781,1187
34.5978,1142
34.6175,1126
34.6372,1152
34.6568,1190
34.6765,1218
34.6962,1199
34.7158,1163
34.7355,1178
34.7552,1150
34.7749,1169
34.7945,1199
34.8142,1187
34.8339,1182
34.8536,1225
34.8732,1180
34.8929,1115
34.9126,1214
34.9323,1209
34.9519,1182
34.9716,1151
34.9913,1203
35.0109,1174
35.0306,1199
35.0503,1163
35.07,1228
35.0896,1288
35.1093,1224
35.129,1184
35.1487,1173
35.1683,1159
35.188,1184
35.2077,1258
35.2274,1268
35.247,1260
35.2667,1244
35.2864,1244
35.3061,1271
35.3257,1272
35.3454,1271
35.3651,1262
35.3847,1223
35.4044,1240
35.4241,1230
35.4438,1231
35.4634,1290
35.4831,1292
35.5028,1278
35.5225,1276
35.5421,1346
35.5618,1281
35.5815,1303
35.6012,1330
35.6208,1295
35.6405,1347
35.6602,1316
35.6799,1304
35.6995,1293
35.7192,1299
35.7389,1315
35.7585,1319
35.7782,1379
35.7979,1322
35.8176,1382
35.8372,1368
35.8569,1331
35.8766,1285
35.8963,1353
35.9159,1384
35.9356,1408
35.9553,1382
35.975,1439
35.9946,1406
36.0143,1407
36.034,1477
36.0536,1529
36.0733,1456
36.093,1465
36.1127,1538
36.1323,1437
36.152,1453
36.1717,1483
36.1914,1498
36.211,1509
36.2307,1518
36.2504,1592
36.2701,1622
36.2897,1633
36.3094,1643
36.3291,1645
36.3488,1682
36.3684,1757
36.3881,1742
36.4078,1830
36.4274,1836
36.4471,1851
36.4668,1987
36.4865,2137
36.5061,2252
36.5258,2459
36.5455,2768
36.5652,3056
36.5848,3486
36.6045,4064
36.6242,4658
36.6439,5494
36.6635,6261
36.6832,6807
36.7029,7071
36.7226,7144
36.7422,7189
36.7619,6900
36.7816,6588
36.8012,6079
36.8209,5578
36.8406,4927
36.8603,4418
36.8799,4043
36.8996,3612
36.9193,3286
36.939,3044
36.9586,2700
36.9783,2563
36.998,2468
37.0177,2342
37.0373,2171
37.057,2113
37.0767,2061
37.0963,1900
37.116,1848
37.1357,1788
37.1554,1793
37.175,1772
37.1947,1659
37.2144,1733
37.2341,1608
37.2537,1638
37.2734,1601
37.2931,1618
37.3128,1569
37.3324,1513
37.3521,1563
37.3718,1507
37.3915,1507
37.4111,1440
37.4308,1502
37.4505,1433
37.4701,1384
37.4898,1387
37.5095,1298
37.5292,1393
37.5488,1367
37.5685,1343
37.5882,1337
37.6079,1324
37.6275,1343
37.6472,1381
37.6669,1310
37.6866,1254
37.7062,1217
37.7259,1277
37.7456,1209
37.7653,1286
37.7849,1297
37.8046,1174
37.8243,1193
37.8439,1225
37.8636,1160
37.8833,1221
37.903,1144
37.9226,1159
37.9423,1188
37.962,1148
37.9817,1073
38.0013,1107
38.021,1117
38.0407,1119
38.0604,1119
38.08,1168
38.0997,1149
38.1194,1066
38.139,1100
38.1587,1133
38.1784,1069
38.1981,1067
38.2177,1072
38.2374,983
38.2571,1074
38.2768,1020
38.2964,1032
38.3161,1051
38.3358,999
38.3555,1049
38.3751,1071
38.3948,1031
38.4145,974
38.4342,1051
38.4538,985
38.4735,1027
38.4932,1014
38.5128,989
38.5325,994
38.5522,991
38.5719,977
38.5915,1005
38.6112,1014
38.6309,956
38.6506,923
38.6702,951
38.6899,956
38.7096,932
38.7293,973
38.7489,920
38.7686,918
38.7883,952
38.808,932
38.8276,892
38.8473,911
38.867,901
38.8866,886
38.9063,904
38.926,871
38.9457,947
38.9653,925
38.985,905
39.0047,928
39.0244,904
39.044,912
39.0637,902
39.0834,865
39.1031,931
39.1227,899
39.1424,850
39.1621,882
39.1817,840
39.2014,822
39.2211,820
39.2408,869
39.2604,843
39.2801,842
39.2998,866
39.3195,855
39.3391,837
39.3588,820
39.3785,843
39.3982,755
39.4178,853
39.4375,812
39.4572,778
39.4769,832
39.4965,787
39.5162,780
39.5359,831
39.5555,765
39.5752,792
39.5949,783
39.6146,843
39.6342,770
39.6539,804
39.6736,729
39.6933,766
39.7129,719
39.7326,759
39.7523,796
39.772,815
39.7916,785
39.8113,789
39.831,751
39.8507,806
39.8703,760
39.89,774
39.9097,737
39.9293,742
39.949,749
39.9687,756
39.9884,757
40.008,759
40.0277,689
40.0474,743
40.0671,697
40.0867,739
40.1064,707
40.1261,719
40.1458,713
40.1654,730
40.1851,753
40.2048,757
40.2245,728
40.2441,713
40.2638,691
40.2835,721
40.3031,733
40.3228,684
40.3425,703
40.3622,692
40.3818,698
40.4015,708
40.4212,716
40.4409,716
40.4605,716
40.4802,692
40.4999,675
40.5196,703
40.5392,681
40.5589,676
40.5786,632
40.5982,661
40.6179,699
40.6376,670
40.6573,677
40.6769,718
40.6966,654
40.7163,674
40.736,672
40.7556,654
40.7753,674
40.795,639
40.8147,638
40.8343,718
40.854,677
40.8737,630
40.8934,647
40.913,665
40.9327,679
40.9524,687
40.972,661
40.9917,646
41.0114,633
41.0311,688
41.0507,640
41.0704,650
41.0901,661
41.1098,609
41.1294,628
41.1491,632
41.1688,630
41.1885,635
41.2081,642
41.2278,630
41.2475,637
41.2672,611
41.2868,635
41.3065,665
41.3262,628
41.3458,615
41.3655,600
41.3852,659
41.4049,628
41.4245,664
41.4442,673
41.4639,645
41.4836,608
41.5032,653
41.5229,604
41.5426,616
41.5623,604
41.5819,639
41.6016,595
41.6213,618
41.6409,589
41.6606,585
41.6803,573
41.7,563
41.7196,607
41.7393,598
41.759,579
41.7787,610
41.7983,568
41.818,590
41.8377,595
41.8574,584
41.877,633
41.8967,570
41.9164,632
41.9361,625
41.9557,596
41.9754,591
41.9951,537
42.0147,574
42.0344,574
42.0541,594
42.0738,565
42.0934,633
42.1131,604
42.1328,619
42.1525,614
42.1721,577
42.1918,538
42.2115,587
42.2312,572
42.2508,553
42.2705,603
42.2902,583
42.3099,606
42.3295,564
42.3492,552
42.3689,582
42.3885,598
42.4082,593
42.4279,503
42.4476,535
42.4672,596
42.4869,595
42.5066,585
42.5263,588
42.5459,545
42.5656,563
42.5853,591
42.605,529
42.6246,524
42.6443,557
42.664,541
42.6836,580
42.7033,492
42.723,534
42.7427,546
42.7623,519
42.782,567
42.8017,513
42.8214,536
42.841,542
42.8607,540
42.8804,529
42.9001,560
42.9197,551
42.9394,539
42.9591,542
42.9788,595
42.9984,577
43.0181,546
43.0378,527
43.0574,549
43.0771,531
43.0968,521
43.1165,523
43.1361,562
43.1558,509
43.1755,567
43.1952,574
43.2148,528
43.2345,566
43.2542,525
43.2739,549
43.2935,542
43.3132,500
43.3329,499
43.3526,524
43.3722,533
43.3919,508
43.4116,511
43.4312,540
43.4509,529
43.4706,502
43.4903,540
43.5099,519
43.5296,515
43.5493,525
43.569,543
43.5886,518
43.6083,497
43.628,506
43.6477,553
43.6673,528
43.687,510
43.7067,526
43.7263,552
43.746,486
43.7657,502
43.7854,526
43.805,490
43.8247,555
43.8444,528
43.8641,471
43.8837,477
43.9034,495
43.9231,504
43.9428,496
43.9624,532
43.9821,537
44.0018,502
44.0215,534
44.0411,532
44.0608,548
44.0805,472
44.1001,524
44.1198,486
44.1395,526
44.1592,488
44.1788,506
44.1985,524
44.2182,509
44.2379,520
44.2575,508
44.2772,470
44.2969,508
44.3166,507
44.3362,525
44.3559,542
44.3756,484
44.3953,513
44.4149,487
44.4346,501
44.4543,534
44.4739,522
44.4936,487
44.5133,490
44.533,482
44.5526,512
44.5723,487
44.592,530
44.6117,489
44.6313,522
44.651,485
44.6707,486
44.6904,501
44.71,497
44.7297,499
44.7494,506
44.769,453
44.7887,508
44.8084,564
44.8281,489
44.8477,504
44.8674,530
44.8871,479
44.9068,459
44.9264,459
44.9461,508
44.9658,490
44.9855,453
45.0051,483
45.0248,499
45.0445,464
45.0642,522
45.0838,478
45.1035,479
45.1232,495
45.1428,487
45.1625,429
45.1822,470
45.2019,482
45.2215,453
45.2412,510
45.2609,492
45.2806,496
45.3002,472
45.3199,545
45.3396,499
45.3593,483
45.3789,451
45.3986,506
45.4183,499
45.438,505
45.4576,455
45.4773,455
45.497,476
45.5166,486
45.5363,528
45.556,480
45.5757,493
45.5953,468
45.615,492
45.6347,465
45.6544,442
45.674,497
45.6937,505
45.7134,474
45.7331,501
45.7527,480
45.7724,523
45.7921,480
45.8117,466
45.8314,502
45.8511,481
45.8708,486
45.8904,484
45.9101,441
45.9298,465
45.9495,494
45.9691,495
45.9888,501
46.0085,505
46.0282,467
46.0478,457
46.0675,468
46.0872,457
46.1069,479
46.1265,471
46.1462,496
46.1659,511
46.1855,494
46.2052,451
46.2249,514
46.2446,514
46.2642,417
46.2839,504
46.3036,420
46.3233,511
46.3429,487
46.3626,445
46.3823,490
46.402,475
46.4216,436
46.4413,490
46.461,443
46.4807,473
46.5003,483
46.52,454
46.5397,438
46.5593,465
46.579,450
46.5987,477
46.6184,458
46.638,474
46.6577,479
46.6774,460
46.6971,513
46.7167,471
46.7364,464
46.7561,479
46.7758,475
46.7954,489
46.8151,458
46.8348,497
46.8544,471
46.8741,432
46.8938,448
46.9135,445
46.9331,487
46.9528,466
46.9725,464
46.9922,500
47.0118,495
47.0315,493
47.0512,459
47.0709,500
47.0905,466
47.1102,483
47.1299,464
47.1496,473
47.1692,487
47.1889,439
47.2086,471
47.2282,482
47.2479,432
47.2676,478
47.2873,454
47.3069,459
47.3266,476
47.3463,445
47.366,473
47.3856,458
47.4053,444
47.425,503
47.4447,420
47.4643,463
47.484,447
47.5037,476
47.5234,474
47.543,493
47.5627,487
47.5824,463
47.602,479
47.6217,484
47.6414,474
47.6611,495
47.6807,425
47.7004,439
47.7201,480
47.7398,448
47.7594,467
47.7791,493
47.7988,487
47.8185,506
47.8381,477
47.8578,488
47.8775,487
47.8972,519
47.9168,520
47.9365,475
47.9562,519
47.9758,534
47.9955,527
48.0152,544
48.0349,534
48.0545,560
48.0742,549
48.0939,570
48.1136,600
48.1332,582
48.1529,550
48.1726,532
48.1923,571
48.2119,545
48.2316,501
48.2513,562
48.2709,530
48.2906,526
48.3103,524
48.33,522
48.3496,490
48.3693,527
48.389,510
48.4087,481
48.4283,504
48.448,480
48.4677,467
48.4874,478
48.507,493
48.5267,461
48.5464,465
48.5661,485
48.5857,487
48.6054,496
48.6251,456
48.6447,496
48.6644,473
48.6841,506
48.7038,441
48.7234,496
48.7431,473
48.7628,462
48.7825,462
48.8021,467
48.8218,435
48.8415,499
48.8612,427
48.8808,468
48.9005,479
48.9202,433
48.9399,470
48.9595,427
48.9792,433
48.9989,435
49.0185,457
49.0382,455
49.0579,438
49.0776,437
49.0972,442
49.1169,442
49.1366,438
49.1563,459
49.1759,472
49.1956,444
49.2153,422
49.235,448
49.2546,459
49.2743,477
49.294,461
49.3136,480
49.3333,480
49.353,467
49.3727,404
49.3923,467
49.412,444
49.4317,429
49.4514,464
49.471,448
49.4907,453
49.5104,441
49.5301,494
49.5497,459
49.5694,430
49.5891,434
49.6088,474
49.6284,423
49.6481,465
49.6678,389
49.6874,421
49.7071,464
49.7268,454
49.7465,433
49.7661,448
49.7858,431
49.8055,426
49.8252,469
49.8448,448
49.8645,415
49.8842,427
49.9039,445
49.9235,414
49.9432,457
49.9629,423
49.9826,481
50.0022,470
50.0219,415
50.0416,433
50.0612,461
50.0809,407
50.1006,420
50.1203,460
50.1399,462
50.1596,421
50.1793,444
50.199,436
50.2186,417
50.2383,454
50.258,455
50.2777,426
50.2973,418
50.317,443
50.3367,423
50.3563,467
50.376,413
50.3957,477
50.4154,449
50.435,436
50.4547,461
50.4744,419
50.4941,455
50.5137,446
50.5334,442
50.5531,443
50.5728,405
50.5924,456
50.6121,450
50.6318,460
50.6515,470
50.6711,466
50.6908,448
50.7105,426
50.7301,448
50.7498,470
50.7695,457
50.7892,460
50.8088,440
50.8285,465
50.8482,470
50.8679,439
50.8875,484
50.9072,470
50.9269,429
50.9466,425
50.9662,448
50.9859,454
51.0056,466
51.0253,431
51.0449,470
51.0646,418
51.0843,461
51.1039,463
51.1236,466
51.1433,413
51.163,432
51.1826,474
51.2023,436
51.222,478
51.2417,460
51.2613,453
51.281,449
51.3007,463
51.3204,439
51.34,472
51.3597,425
51.3794,445
51.399,435
51.4187,433
51.4384,462
51.4581,442
51.4777,461
51.4974,432
51.5171,437
51.5368,421
51.5564,428
51.5761,445
51.5958,442
51.6155,435
51.6351,425
51.6548,482
51.6745,428
51.6942,432
51.7138,387
51.7335,441
51.7532,450
51.7728,421
51.7925,488
51.8122,431
51.8319,470
51.8515,412
51.8712,404
51.8909,452
51.9106,453
51.9302,418
51.9499,445
51.9696,457
51.9893,443
52.0089,474
52.0286,448
52.0483,434
52.068,421
52.0876,417
52.1073,407
52.127,441
52.1466,437
52.1663,441
52.186,423
52.2057,432
52.2253,418
52.245,431
52.2647,466
52.2844,456
52.304,449
52.3237,433
52.3434,438
52.3631,456
52.3827,424
52.4024,462
52.4221,449
52.4417,450
52.4614,398
52.4811,452
52.5008,440
52.5204,410
52.5401,428
52.5598,440
52.5795,468
52.5991,451
52.6188,424
52.6385,431
52.6582,445
52.6778,456
52.6975,448
52.7172,448
52.7369,443
52.7565,454
52.7762,471
52.7959,420
52.8155,465
52.8352,432
52.8549,465
52.8746,462
52.8942,449
52.9139,481
52.9336,484
52.9533,496
52.9729,494
52.9926,470
53.0123,569
53.032,519
53.0516,549
53.0713,539
53.091,527
53.1107,480
53.1303,558
53.15,512
53.1697,522
53.1893,500
53.209,483
53.2287,484
53.2484,495
53.268,440
53.2877,430
53.3074,475
53.3271,477
53.3467,448
53.3664,430
53.3861,474
53.4058,463
53.4254,446
53.4451,427
53.4648,423
53.4844,422
53.5041,397
53.5238,426
53.5435,440
53.5631,403
53.5828,393
53.6025,397
53.6222,413
53.6418,448
53.6615,429
53.6812,435
53.7009,434
53.7205,435
53.7402,417
53.7599,445
53.7796,394
53.7992,402
53.8189,402
53.8386,401
53.8582,421
53.8779,404
53.8976,411
53.9173,415
53.9369,404
53.9566,402
53.9763,413
53.996,457
54.0156,421
54.0353,479
54.055,413
54.0747,377
54.0943,427
54.114,436
54.1337,439
54.1534,413
54.173,433
54.1927,411
54.2124,429
54.232,450
54.2517,445
54.2714,418
54.2911,419
54.3107,432
54.3304,412
54.3501,399
54.3698,443
54.3894,418
54.4091,421
54.4288,399
54.4485,435
54.4681,433
54.4878,407
54.5075,398
54.5271,417
54.5468,388
54.5665,418
54.5862,418
54.6058,393
54.6255,409
54.6452,402
54.6649,424
54.6845,424
54.7042,452
54.7239,420
54.7436,407
54.7632,409
54.7829,385
54.8026,432
54.8223,418
54.8419,425
54.8616,390
54.8813,405
54.9009,411
54.9206,408
54.9403,436
54.96,402
54.9796,388
54.9993,375
55.019,392
55.0387,441
55.0583,408
55.078,417
55.0977,449
55.1174,417
55.137,394
55.1567,398
55.1764,437
55.1961,422
55.2157,423
55.2354,391
55.2551,406
55.2747,404
55.2944,396
55.3141,413
55.3338,416
55.3534,378
55.3731,416
55.3928,419
55.4125,422
55.4321,437
55.4518,454
55.4715,443
55.4912,413
55.5108,376
55.5305,385
55.5502,438
55.5698,376
55.5895,445
55.6092,404
55.6289,433
55.6485,402
55.6682,405
55.6879,442
55.7076,434
55.7272,394
55.7469,393
55.7666,462
55.7863,441
55.8059,433
55.8256,431
55.8453,447
55.865,408
55.8846,394
55.9043,407
55.924,387
55.9436,425
55.9633,398
55.983,395
56.0027,421
56.0223,409
56.042,383
56.0617,410
56.0814,409
56.101,428
56.1207,397
56.1404,424
56.1601,402
56.1797,440
56.1994,450
56.2191,424
56.2388,436
56.2584,401
56.2781,408
56.2978,435
56.3174,472
56.3371,405
56.3568,436
56.3765,462
56.3961,413
56.4158,427
56.4355,406
56.4552,437
56.4748,401
56.4945,403
56.5142,406
56.5339,427
56.5535,438
56.5732,417
56.5929,437
56.6126,431
56.6322,422
56.6519,378
56.6716,396
56.6912,434
56.7109,393
56.7306,429
56.7503,393
56.7699,406
56.7896,420
56.8093,475
56.829,394
56.8486,393
56.8683,409
56.888,411
56.9077,435
56.9273,433
56.947,392
56.9667,391
56.9863,396
57.006,443
57.0257,428
57.0454,449
57.065,421
57.0847,422
57.1044,404
57.1241,428
57.1437,383
57.1634,400
57.1831,420
57.2028,398
57.2224,429
57.2421,446
57.2618,421
57.2815,424
57.3011,445
57.3208,428
57.3405,460
57.3601,417
57.3798,401
57.3995,423
57.4192,423
57.4388,419
57.4585,434
57.4782,406
57.4979,413
57.5175,406
57.5372,409
57.5569,443
57.5766,412
57.5962,406
57.6159,449
57.6356,449
57.6553,388
57.6749,412
57.6946,451
57.7143,437
57.7339,432
57.7536,420
57.7733,427
57.793,422
57.8126,422
57.8323,412
57.852,444
57.8717,427
57.8913,428
57.911,397
57.9307,427
57.9504,427
57.97,385
57.9897,419
58.0094,402
58.029,422
58.0487,426
58.0684,404
58.0881,410
58.1077,398
58.1274,420
58.1471,440
58.1668,435
58.1864,404
58.2061,413
58.2258,409
58.2455,474
58.2651,391
58.2848,450
58.3045,439
58.3242,401
58.3438,408
58.3635,419
58.3832,418
58.4028,403
58.4225,428
58.4422,404
58.4619,426
58.4815,435
58.5012,410
58.5209,459
58.5406,398
58.5602,444
58.5799,434
58.5996,419
58.6193,401
58.6389,413
58.6586,424
58.6783,402
58.698,424
58.7176,433
58.7373,451
58.757,404
58.7766,378
58.7963,445
58.816,434
58.8357,424
58.8553,444
58.875,429
58.8947,413
58.9144,463
58.934,384
58.9537,458
58.9734,418
58.9931,411
59.0127,459
59.0324,435
59.0521,421
59.0717,440
59.0914,460
59.1111,431
59.1308,410
59.1504,453
59.1701,431
59.1898,430
59.2095,452
59.2291,408
59.2488,421
59.2685,384
59.2882,444
59.3078,395
59.3275,436
59.3472,465
59.3669,440
59.3865,396
59.4062,445
59.4259,426
59.4455,461
59.4652,413
59.4849,382
59.5046,432
59.5242,457
59.5439,430
59.5636,449
59.5833,423
59.6029,437
59.6226,473
59.6423,448
59.662,426
59.6816,477
59.7013,449
59.721,427
59.7407,463
59.7603,410
59.78,416
59.7997,415
59.8193,402
59.839,430
59.8587,482
59.8784,441
59.898,414
59.9177,463
59.9374,428
59.9571,460
59.9767,424
59.9964,441
60.0161,416
60.0358,472
60.0554,429
60.0751,410
60.0948,463
60.1144,439
60.1341,443
60.1538,435
60.1735,439
60.1931,433
60.2128,457
60.2325,416
60.2522,470
60.2718,501
60.2915,441
60.3112,444
60.3309,445
60.3505,430
60.3702,420
60.3899,440
60.4096,424
60.4292,418
60.4489,477
60.4686,449
60.4882,458
60.5079,435
60.5276,464
60.5473,469
60.5669,477
60.5866,469
60.6063,501
60.626,424
60.6456,408
60.6653,428
60.685,446
60.7047,403
60.7243,441
60.744,477
60.7637,452
60.7834,438
60.803,481
60.8227,445
60.8424,463
60.862,454
60.8817,468
60.9014,501
60.9211,428
60.9407,446
60.9604,470
60.9801,444
60.9998,494
61.0194,459
61.0391,478
61.0588,443
61.0785,475
61.0981,487
61.1178,430
61.1375,480
61.1571,475
61.1768,490
61.1965,482
61.2162,482
61.2358,471
61.2555,430
61.2752,473
61.2949,539
61.3145,511
61.3342,440
61.3539,467
61.3736,477
61.3932,467
61.4129,484
61.4326,454
61.4523,466
61.4719,461
61.4916,489
61.5113,462
61.5309,470
61.5506,467
61.5703,494
61.59,506
61.6096,505
61.6293,439
61.649,510
61.6687,470
61.6883,465
61.708,484
61.7277,464
61.7474,485
61.767,489
61.7867,508
61.8064,469
61.8261,410
61.8457,505
61.8654,518
61.8851,461
61.9047,483
61.9244,507
61.9441,504
61.9638,448
61.9834,467
62.0031,476
62.0228,458
62.0425,475
62.0621,458
62.0818,470
62.1015,451
62.1212,505
62.1408,446
62.1605,514
62.1802,481
62.1998,451
62.2195,477
62.2392,454
62.2589,504
62.2785,488
62.2982,484
62.3179,478
62.3376,556
62.3572,522
62.3769,501
62.3966,481
62.4163,493
62.4359,488
62.4556,515
62.4753,514
62.495,449
62.5146,445
62.5343,465
62.554,462
62.5736,493
62.5933,505
62.613,478
62.6327,514
62.6523,492
62.672,518
62.6917,505
62.7114,527
62.731,500
62.7507,502
62.7704,490
62.7901,464
62.8097,521
62.8294,509
62.8491,480
62.8688,524
62.8884,494
62.9081,478
62.9278,494
62.9474,448
62.9671,443
62.9868,504
63.0065,463
63.0261,510
63.0458,487
63.0655,497
63.0852,462
63.1048,489
63.1245,534
63.1442,481
63.1639,444
63.1835,469
63.2032,487
63.2229,513
63.2425,490
63.2622,503
63.2819,485
63.3016,491
63.3212,504
63.3409,485
63.3606,551
63.3803,544
63.3999,535
63.4196,485
63.4393,475
63.459,506
63.4786,520
63.4983,513
63.518,514
63.5377,480
63.5573,502
63.577,494
63.5967,516
63.6163,479
63.636,516
63.6557,500
63.6754,478
63.695,504
63.7147,512
63.7344,517
63.7541,499
63.7737,519
63.7934,546
63.8131,477
63.8328,481
63.8524,503
63.8721,499
63.8918,523
63.9115,525
63.9311,509
63.9508,501
63.9705,521
63.9901,540
64.0098,509
64.0295,512
64.0492,539
64.0688,502
64.0885,548
64.1082,509
64.1279,505
64.1475,526
64.1672,520
64.1869,465
64.2066,480
64.2262,563
64.2459,540
64.2656,532
64.2853,488
64.3049,532
64.3246,530
64.3443,564
64.3639,503
64.3836,509
64.4033,531
64.423,524
64.4426,522
64.4623,551
64.482,573
64.5017,508
64.5213,518
64.541,514
64.5607,540
64.5804,517
64.6,533
64.6197,563
64.6394,519
64.659,567
64.6787,511
64.6984,547
64.7181,560
64.7377,563
64.7574,513
64.7771,524
64.7968,534
64.8164,522
64.8361,547
64.8558,545
64.8755,533
64.8951,501
64.9148,536
64.9345,542
64.9542,503
64.9738,540
64.9935,545
65.0132,545
65.0328,579
65.0525,541
65.0722,554
65.0919,584
65.1115,543
65.1312,618
65.1509,627
65.1706,550
65.1902,599
65.2099,586
65.2296,545
65.2493,546
65.2689,576
65.2886,564
65.3083,564
65.328,602
65.3476,589
65.3673,619
65.387,565
65.4066,594
65.4263,602
65.446,616
65.4657,621
65.4853,630
65.505,614
65.5247,552
65.5444,584
65.564,643
65.5837,654
65.6034,635
65.6231,626
65.6427,608
65.6624,639
65.6821,653
65.7017,613
65.7214,627
65.7411,624
65.7608,617
65.7804,673
65.8001,642
65.8198,690
65.8395,710
65.8591,707
65.8788,715
65.8985,716
65.9182,724
65.9378,810
65.9575,788
65.9772,796
65.9969,775
66.0165,767
66.0362,865
66.0559,876
66.0755,887
66.0952,934
66.1149,986
66.1346,1069
66.1542,1121
66.1739,1290
66.1936,1339
66.2133,1459
66.2329,1536
66.2526,1563
66.2723,1470
66.292,1457
66.3116,1492
66.3313,1392
66.351,1472
66.3707,1476
66.3903,1505
66.41,1522
66.4297,1432
66.4493,1401
66.469,1397
66.4887,1316
66.5084,1297
66.528,1256
66.5477,1289
66.5674,1122
66.5871,1220
66.6067,1158
66.6264,1102
66.6461,1047
66.6658,1033
66.6854,998
66.7051,929
66.7248,1002
66.7444,944
66.7641,951
66.7838,921
66.8035,854
66.8231,878
66.8428,818
66.8625,818
66.8822,790
66.9018,768
66.9215,737
66.9412,749
66.9609,752
66.9805,775
67.0002,752
67.0199,756
67.0396,717
67.0592,658
67.0789,691
67.0986,669
67.1182,719
67.1379,683
67.1576,689
67.1773,640
67.1969,677
67.2166,644
67.2363,685
67.256,627
67.2756,664
67.2953,649
67.315,633
67.3347,699
67.3543,638
67.374,574
67.3937,611
67.4134,637
67.433,621
67.4527,596
67.4724,616
67.492,569
67.5117,657
67.5314,571
67.5511,590
67.5707,598
67.5904,600
67.6101,600
67.6298,577
67.6494,609
67.6691,564
67.6888,548
67.7085,574
67.7281,547
67.7478,574
67.7675,519
67.7871,581
67.8068,576
67.8265,548
67.8462,583
67.8658,609
67.8855,520
67.9052,541
67.9249,549
67.9445,574
67.9642,566
67.9839,584
68.0036,519
68.0232,553
68.0429,584
68.0626,581
68.0823,568
68.1019,555
68.1216,522
68.1413,569
68.1609,571
68.1806,597
68.2003,523
68.22,515
68.2396,529
68.2593,561
68.279,520
68.2987,510
68.3183,532
68.338,530
68.3577,567
68.3774,576
68.397,517
68.4167,523
68.4364,539
68.4561,526
68.4757,503
68.4954,536
68.5151,539
68.5347,513
68.5544,524
68.5741,531
68.5938,542
68.6134,488
68.6331,503
68.6528,556
68.6725,539
68.6921,470
68.7118,544
68.7315,503
68.7512,519
68.7708,516
68.7905,505
68.8102,505
68.8298,521
68.8495,509
68.8692,547
68.8889,531
68.9085,485
68.9282,548
68.9479,545
68.9676,503
68.9872,494
69.0069,498
69.0266,478
69.0463,501
69.0659,432
69.0856,528
69.1053,521
69.125,467
69.1446,476
69.1643,467
69.184,528
69.2036,507
69.2233,495
69.243,504
69.2627,539
69.2823,500
69.302,528
69.3217,520
69.3414,515
69.361,515
69.3807,520
69.4004,553
69.4201,504
69.4397,479
69.4594,524
69.4791,494
69.4988,484
69.5184,518
69.5381,536
69.5578,527
69.5774,525
69.5971,484
69.6168,459
69.6365,481
69.6561,496
69.6758,515
69.6955,512
69.7152,503
69.7348,501
69.7545,452
69.7742,489
69.7939,456
69.8135,489
69.8332,473
69.8529,468
69.8725,487
69.8922,441
69.9119,491
69.9316,502
69.9512,487
69.9709,529
69.9906,468
70.0103,508
70.0299,496
70.0496,476
70.0693,463
70.089,472
70.1086,447
70.1283,514
70.148,530
70.1677,558
70.1873,510
70.207,515
70.2267,445
70.2463,501
70.266,469
70.2857,472
70.3054,467
70.325,501
70.3447,495
70.3644,455
70.3841,466
70.4037,510
70.4234,409
70.4431,441
70.4628,474
70.4824,453
70.5021,439
70.5218,473
70.5415,459
70.5611,485
70.5808,447
70.6005,500
70.6201,524
70.6398,477
70.6595,488
70.6792,470
70.6988,495
70.7185,475
70.7382,480
70.7579,474
70.7775,471
70.7972,476
70.8169,460
70.8366,464
70.8562,493
70.8759,474
70.8956,457
70.9152,479
70.9349,448
70.9546,459
70.9743,488
70.9939,460
71.0136,435
71.0333,437
71.053,457
71.0726,536
71.0923,496
71.112,454
71.1317,458
71.1513,464
71.171,486
71.1907,503
71.2104,491
71.23,479
71.2497,455
71.2694,482
71.289,457
71.3087,503
71.3284,461
71.3481,482
71.3677,459
71.3874,460
71.4071,489
71.4268,468
71.4464,487
71.4661,433
71.4858,441
71.5055,475
71.5251,464
71.5448,444
71.5645,469
71.5842,510
71.6038,465
71.6235,454
71.6432,510
71.6628,440
71.6825,453
71.7022,478
71.7219,466
71.7415,463
71.7612,467
71.7809,475
71.8006,453
71.8202,472
71.8399,413
71.8596,502
71.8793,458
71.8989,489
71.9186,434
71.9383,442
71.958,455
71.9776,480
71.9973,430
72.017,505
72.0366,435
72.0563,453
72.076,442
72.0957,487
72.1153,479
72.135,464
72.1547,458
72.1744,436
72.194,509
72.2137,440
72.2334,505
72.2531,426
72.2727,513
72.2924,478
72.3121,485
72.3317,482
72.3514,461
72.3711,483
72.3908,438
72.4104,441
72.4301,455
72.4498,469
72.4695,441
72.4891,466
72.5088,512
72.5285,488
72.5482,497
72.5678,483
72.5875,427
72.6072,449
72.6269,513
72.6465,451
72.6662,473
72.6859,432
72.7055,473
72.7252,460
72.7449,528
72.7646,454
72.7842,486
72.8039,453
72.8236,487
72.8433,450
72.8629,480
72.8826,478
72.9023,462
72.922,485
72.9416,475
72.9613,447
72.981,453
73.0007,476
73.0203,475
73.04,464
73.0597,443
73.0793,436
73.099,489
73.1187,449
73.1384,444
73.158,453
73.1777,469
73.1974,490
73.2171,515
73.2367,471
73.2564,481
73.2761,463
73.2958,449
73.3154,469
73.3351,472
73.3548,488
73.3744,457
73.3941,410
73.4138,447
73.4335,466
73.4531,507
73.4728,483
73.4925,492
73.5122,449
73.5318,509
73.5515,480
73.5712,472
73.5909,439
73.6105,443
73.6302,462
73.6499,458
73.6696,428
73.6892,486
73.7089,470
73.7286,500
73.7482,447
73.7679,460
73.7876,445
73.8073,486
73.8269,471
73.8466,417
73.8663,471
73.886,468
73.9056,446
73.9253,431
73.945,476
73.9647,454
73.9843,472
74.004,466
74.0237,444
74.0434,467
74.063,474
74.0827,447
74.1024,441
74.122,461
74.1417,442
74.1614,459
74.1811,444
74.2007,476
74.2204,471
74.2401,459
74.2598,481
74.2794,468
74.2991,470
74.3188,438
74.3385,433
74.3581,443
74.3778,464
74.3975,454
74.4171,473
74.4368,449
74.4565,441
74.4762,493
74.4958,461
74.5155,418
74.5352,456
74.5549,472
74.5745,420
74.5942,452
74.6139,463
74.6336,464
74.6532,467
74.6729,449
74.6926,433
74.7123,398
74.7319,451
74.7516,473
74.7713,420
74.7909,434
74.8106,464
74.8303,499
74.85,401
74.8696,479
74.8893,423
74.909,457
74.9287,428
74.9483,435
74.968,457
74.9877,435
75.0074,440
75.027,458
75.0467,446
75.0664,455
75.0861,411
75.1057,476
75.1254,448
75.1451,401
75.1647,432
75.1844,437
75.2041,468
75.2238,438
75.2434,464
75.2631,447
75.2828,450
75.3025,408
75.3221,442
75.3418,425
75.3615,442
75.3812,437
75.4008,434
75.4205,430
75.4402,433
75.4598,457
75.4795,406
75.4992,376
75.5189,425
75.5385,445
75.5582,444
75.5779,401
75.5976,407
75.6172,411
75.6369,389
75.6566,435
75.6763,413
75.6959,381
75.7156,430
75.7353,374
75.755,412
75.7746,411
75.7943,423
75.814,411
75.8336,386
75.8533,403
75.873,418
75.8927,406
75.9123,368
75.932,405
75.9517,407
75.9714,418
75.991,424
76.0107,424
76.0304,429
76.0501,442
76.0697,415
76.0894,391
76.1091,418
76.1288,388
76.1484,373
76.1681,409
76.1878,429
76.2074,419
76.2271,429
76.2468,380
76.2665,393
76.2861,409
76.3058,377
76.3255,435
76.3452,398
76.3648,361
76.3845,424
76.4042,385
76.4239,416
76.4435,382
76.4632,407
76.4829,412
76.5025,402
76.5222,390
76.5419,381
76.5616,374
76.5812,348
76.6009,384
76.6206,378
76.6403,410
76.6599,375
76.6796,417
76.6993,411
76.719,436
76.7386,389
76.7583,388
76.778,413
76.7977,400
76.8173,383
76.837,380
76.8567,347
76.8763,426
76.896,379
76.9157,387
76.9354,398
76.955,366
76.9747,375
76.9944,366
77.0141,345
77.0337,398
77.0534,346
77.0731,376
77.0928,344
77.1124,378
77.1321,367
77.1518,404
77.1715,359
77.1911,396
77.2108,370
77.2305,374
77.2501,403
77.2698,343
77.2895,386
77.3092,307
77.3288,381
77.3485,343
77.3682,381
77.3879,353
77.4075,358
77.4272,358
77.4469,337
77.4666,341
77.4862,362
77.5059,340
77.5256,369
77.5452,343
77.5649,379
77.5846,328
77.6043,348
77.6239,376
77.6436,329
77.6633,379
77.683,373
77.7026,410
77.7223,378
77.742,360
77.7617,350
77.7813,378
77.801,337
77.8207,365
77.8404,375
77.86,340
77.8797,336
77.8994,350
77.919,357
77.9387,375
77.9584,367
77.9781,358
77.9977,358
78.0174,353
78.0371,350
78.0568,388
78.0764,334
78.0961,412
78.1158,366
78.1355,341
78.1551,352
78.1748,382
78.1945,355
78.2142,368
78.2338,360
78.2535,334
78.2732,344
78.2928,388
78.3125,369
78.3322,346
78.3519,328
78.3715,319
78.3912,371
78.4109,349
78.4306,310
78.4502,335
78.4699,339
78.4896,337
78.5093,338
78.5289,327
78.5486,353
78.5683,366
78.5879,309
78.6076,364
78.6273,340
78.647,368
78.6666,324
78.6863,332
78.706,300
78.7257,354
78.7453,317
78.765,340
78.7847,333
78.8044,329
78.824,328
78.8437,332
78.8634,324
78.8831,336
78.9027,328
78.9224,359
78.9421,340
78.9617,341
78.9814,322
79.0011,285
79.0208,340
79.0404,319
79.0601,330
79.0798,318
79.0995,311
79.1191,308
79.1388,315
79.1585,341
79.1782,335
79.1978,333
79.2175,341
79.2372,335
79.2569,353
79.2765,307
79.2962,316
79.3159,308
79.3355,316
79.3552,308
79.3749,305
79.3946,305
79.4142,338
79.4339,307
79.4536,280
79.4733,319
79.4929,318
79.5126,324
79.5323,287
79.552,290
79.5716,305
79.5913,307
79.611,308
79.6307,310
79.6503,288
79.67,316
79.6897,313
79.7093,311
79.729,315
79.7487,310
79.7684,311
79.788,317
79.8077,332
79.8274,320
79.8471,321
79.8667,301
79.8864,309
79.9061,298
79.9258,270
79.9454,296
79.9651,321
79.9848,292
80.0044,285
80.0241,324
80.0438,286
80.0635,296
80.0831,275
80.1028,314
80.1225,331
80.1422,302
80.1618,277
80.1815,296
80.2012,296
80.2209,278
80.2405,299
80.2602,314
80.2799,308
80.2996,297
80.3192,283
80.3389,309
80.3586,294
80.3782,306
80.3979,308
80.4176,307
80.4373,282
80.4569,304
80.4766,291
80.4963,291
80.516,309
80.5356,278
80.5553,324
80.575,316
80.5947,287
80.6143,293
80.634,256
80.6537,297
80.6734,289
80.693,302
80.7127,289
80.7324,276
80.752,279
80.7717,279
80.7914,307
80.8111,295
80.8307,305
80.8504,287
80.8701,289
80.8898,298
80.9094,299
80.9291,296
80.9488,273
80.9685,285
80.9881,264
81.0078,284
81.0275,322
81.0471,271
81.0668,309
81.0865,276
81.1062,298
81.1258,288
81.1455,299
81.1652,261
81.1849,300
81.2045,291
81.2242,295
81.2439,294
81.2636,305
81.2832,277
81.3029,297
81.3226,294
81.3423,267
81.3619,270
81.3816,281
81.4013,325
81.4209,274
81.4406,265
81.4603,255
81.48,300
81.4996,308
81.5193,287
81.539,273
81.5587,281
81.5783,306
81.598,295
81.6177,276
81.6374,302
81.657,275
81.6767,273
81.6964,298
81.7161,262
81.7357,281
81.7554,285
81.7751,279
81.7947,269
81.8144,276
81.8341,299
81.8538,282
81.8734,272
81.8931,256
81.9128,306
81.9325,287
81.9521,279
81.9718,278
81.9915,272
82.0112,260
82.0308,287
82.0505,243
82.0702,283
82.0898,283
82.1095,278
82.1292,265
82.1489,278
82.1685,285
82.1882,295
82.2079,303
82.2276,277
82.2472,263
82.2669,277
82.2866,276
82.3063,295
82.3259,291
82.3456,291
82.3653,300
82.385,275
82.4046,258
82.4243,288
82.444,266
82.4636,313
82.4833,275
82.503,282
82.5227,264
82.5423,271
82.562,286
82.5817,283
82.6014,242
82.621,290
82.6407,264
82.6604,260
82.6801,270
82.6997,345
82.7194,268
82.7391,284
82.7588,300
82.7784,282
82.7981,300
82.8178,303
82.8374,284
82.8571,286
82.8768,262
82.8965,273
82.9161,282
82.9358,293
82.9555,298
82.9752,267
82.9948,257
83.0145,275
83.0342,279
83.0539,278
83.0735,276
83.0932,282
83.1129,250
83.1325,287
83.1522,253
83.1719,280
83.1916,263
83.2112,272
83.2309,278
83.2506,255
83.2703,317
83.2899,282
83.3096,296
83.3293,280
83.349,258
83.3686,278
83.3883,267
83.408,283
83.4277,289
83.4473,273
83.467,270
83.4867,262
83.5063,261
83.526,268
83.5457,281
83.5654,274
83.585,304
83.6047,257
83.6244,251
83.6441,295
83.6637,277
83.6834,270
83.7031,312
83.7228,279
83.7424,261
83.7621,275
83.7818,292
83.8015,245
83.8211,249
83.8408,263
83.8605,236
83.8801,278
83.8998,277
83.9195,254
83.9392,271
83.9588,290
83.9785,229
83.9982,254
84.0179,242
84.0375,295
84.0572,278
84.0769,286
84.0966,292
84.1162,254
84.1359,294
84.1556,251
84.1752,257
84.1949,289
84.2146,270
84.2343,248
84.2539,257
84.2736,266
84.2933,272
84.313,302
84.3326,287
84.3523,247
84.372,285
84.3917,235
84.4113,262
84.431,264
84.4507,276
84.4704,240
84.49,244
84.5097,269
84.5294,266
84.549,248
84.5687,266
84.5884,296
84.6081,276
84.6277,272
84.6474,272
84.6671,262
84.6868,247
84.7064,260
84.7261,296
84.7458,261
84.7655,265
84.7851,262
84.8048,248
84.8245,256
84.8442,253
84.8638,266
84.8835,289
84.9032,257
84.9228,267
84.9425,277
84.9622,255
84.9819,282
85.0015,282
85.0212,289
85.0409,276
85.0606,257
85.0802,287
85.0999,271
85.1196,273
85.1393,266
85.1589,256
85.1786,246
85.1983,292
85.2179,241
85.2376,267
85.2573,264
85.277,263
85.2966,260
85.3163,292
85.336,264
85.3557,259
85.3753,273
85.395,264
85.4147,290
85.4344,261
85.454,258
85.4737,257
85.4934,274
85.5131,257
85.5327,276
85.5524,290
85.5721,255
85.5917,295
85.6114,239
85.6311,288
85.6508,253
85.6704,268
85.6901,277
85.7098,263
85.7295,253
85.7491,297
85.7688,276
85.7885,255
85.8082,270
85.8278,288
85.8475,280
85.8672,278
85.8869,269
85.9065,262
85.9262,291
85.9459,271
85.9655,275
85.9852,291
86.0049,259
86.0246,269
86.0442,283
86.0639,290
86.0836,298
86.1033,249
86.1229,284
86.1426,231
86.1623,275
86.182,259
86.2016,283
86.2213,288
86.241,236
86.2606,278
86.2803,252
86.3,255
86.3197,249
86.3393,269
86.359,261
86.3787,285
86.3984,306
86.418,265
86.4377,295
86.4574,283
86.4771,288
86.4967,257
86.5164,284
86.5361,262
86.5558,265
86.5754,260
86.5951,291
86.6148,265
86.6344,298
86.6541,297
86.6738,258
86.6935,265
86.7131,262
86.7328,266
86.7525,284
86.7722,281
86.7918,284
86.8115,263
86.8312,280
86.8509,300
86.8705,310
86.8902,272
86.9099,265
86.9296,275
86.9492,267
86.9689,289
86.9886,260
87.0082,281
87.0279,290
87.0476,255
87.0673,270
87.0869,264
87.1066,278
87.1263,265
87.146,289
87.1656,290
87.1853,279
87.205,284
87.2247,268
87.2443,287
87.264,281
87.2837,276
87.3033,266
87.323,294
87.3427,301
87.3624,301
87.382,303
87.4017,323
87.4214,260
87.4411,299
87.4607,275
87.4804,263
87.5001,291
87.5198,272
87.5394,250
87.5591,287
87.5788,288
87.5985,281
87.6181,268
87.6378,299
87.6575,298
87.6771,270
87.6968,293
87.7165,282
87.7362,239
87.7558,283
87.7755,268
87.7952,268
87.8149,270
87.8345,253
87.8542,303
87.8739,287
87.8936,299
87.9132,294
87.9329,262
87.9526,272
87.9723,274
87.9919,280
88.0116,304
88.0313,299
88.0509,291
88.0706,250
88.0903,297
88.11,291
88.1296,284
88.1493,293
88.169,304
88.1887,268
88.2083,278
88.228,318
88.2477,284
88.2674,298
88.287,295
88.3067,297
88.3264,306
88.3461,259
88.3657,289
88.3854,283
88.4051,257
88.4247,288
88.4444,305
88.4641,288
88.4838,300
88.5034,293
88.5231,293
88.5428,314
88.5625,285
88.5821,304
88.6018,302
88.6215,323
88.6412,280
88.6608,261
88.6805,290
88.7002,275
88.7198,300
88.7395,315
88.7592,294
88.7789,300
88.7985,312
88.8182,270
88.8379,292
88.8576,308
88.8772,299
88.8969,282
88.9166,279
88.9363,322
88.9559,301
88.9756,272
88.9953,318
89.015,305
89.0346,296
89.0543,270
89.074,291
89.0936,286
89.1133,297
89.133,304
89.1527,327
89.1723,275
89.192,248
89.2117,300
89.2314,323
89.251,317
89.2707,311
89.2904,286
89.3101,316
89.3297,331
89.3494,307
89.3691,286
89.3888,253
89.4084,297
89.4281,266
89.4478,285
89.4674,294
89.4871,306
89.5068,333
89.5265,280
89.5461,289
89.5658,320
89.5855,309
89.6052,292
89.6248,345
89.6445,340
89.6642,328
89.6839,295
89.7035,293
89.7232,298
89.7429,312
89.7625,280
89.7822,335
89.8019,298
89.8216,300
89.8412,283
89.8609,310
89.8806,311
89.9003,301
89.9199,306
89.9396,315
89.9593,289
89.979,304
89.9986,293
